        N   size[kB]     t[s]  op_per_sec[10^9]
      250        1.0  0.30851  0.324138
      276        1.1  0.30932  0.323285
      305        1.2  0.30788  0.324802
      337        1.3  0.30898  0.323649
      373        1.5  0.31036  0.322205
      412        1.6  0.30998  0.322601
      455        1.8  0.30995  0.322634
      503        2.0  0.31076  0.321791
      556        2.2  0.31224  0.320268
      615        2.4  0.31002  0.322559
      679        2.7  0.31002  0.322563
      751        2.9  0.30996  0.322626
      830        3.2  0.30893  0.323695
      917        3.6  0.30970  0.322896
     1014        4.0  0.30946  0.323148
     1121        4.4  0.30847  0.324176
     1238        4.8  0.30929  0.323322
     1369        5.3  0.30936  0.323249
     1513        5.9  0.30920  0.323411
     1672        6.5  0.30917  0.323443
     1848        7.2  0.31014  0.322430
     2043        8.0  0.30848  0.324169
     2258        8.8  0.30964  0.322957
     2495        9.7  0.30978  0.322814
     2758       10.8  0.30910  0.323522
     3048       11.9  0.30949  0.323115
     3369       13.2  0.30945  0.323154
     3723       14.5  0.30944  0.323163
     4115       16.1  0.31016  0.322417
     4548       17.8  0.30953  0.323067
     5026       19.6  0.31058  0.321978
     5555       21.7  0.31088  0.321662
     6140       24.0  0.31121  0.321328
     6786       26.5  0.31192  0.320596
     7500       29.3  0.31244  0.320065
     8289       32.4  0.31640  0.316060
     9161       35.8  0.33763  0.296184
    10125       39.6  0.35548  0.281307
    11190       43.7  0.37071  0.269755
    12367       48.3  0.38781  0.257857
    13668       53.4  0.40015  0.249908
    15106       59.0  0.41060  0.243546
    16696       65.2  0.42074  0.237676
    18452       72.1  0.42933  0.232922
    20394       79.7  0.43710  0.228782
    22539       88.0  0.44588  0.224274
    24911       97.3  0.45411  0.220213
    27532      107.5  0.49046  0.203891
    30429      118.9  0.49591  0.201650
    33630      131.4  0.50379  0.198496
    37168      145.2  0.49693  0.201234
    41079      160.5  0.50119  0.199523
    45401      177.3  0.52047  0.192134
    50177      196.0  0.55121  0.181419
    55456      216.6  0.56965  0.175545
    61291      239.4  0.59907  0.166926
    67740      264.6  0.66036  0.151434
    74867      292.4  0.71565  0.139732
    82743      323.2  0.76998  0.129873
    91449      357.2  0.83343  0.119987
   101070      394.8  0.89267  0.112024
   111704      436.3  0.92827  0.107727
   123456      482.2  0.96838  0.103265
   136445      533.0  1.01169  0.098844
   150800      589.1  1.05414  0.094864
   166666      651.0  1.10024  0.090889
   184201      719.5  1.13120  0.088402
   203581      795.2  1.16138  0.086105
   225000      878.9  1.19533  0.083659
   248672      971.4  1.22380  0.081713
   274835     1073.6  1.24929  0.080046
   303750     1186.5  1.26660  0.078952
   335708     1311.4  1.28638  0.077738
   371027     1449.3  1.30885  0.076403
   410063     1601.8  1.32617  0.075405
   453206     1770.3  1.35035  0.074055
   500888     1956.6  1.35740  0.073670
   553586     2162.4  1.36976  0.073006
   611829     2390.0  1.39292  0.071792
   676199     2641.4  1.41290  0.070776
   747342     2919.3  1.45017  0.068957
   825970     3226.4  1.51350  0.066072
   912870     3565.9  1.57342  0.063556
  1008913     3941.1  1.68170  0.059464
  1115061     4355.7  1.88052  0.053177
  1232376     4814.0  2.06381  0.048454
  1362035     5320.4  2.23502  0.044742
  1505334     5880.2  2.66779  0.037484
  1663710     6498.9  2.38221  0.041978
  1838749     7182.6  2.74802  0.036390
  2032203     7938.3  3.87446  0.025810
  2246011     8773.5  4.41624  0.022644
  2482314     9696.5  4.40729  0.022690
  2743478    10716.7  4.84432  0.020643
  3032119    11844.2  5.36082  0.018654
  3351127    13090.3  4.59041  0.021785
  3703699    14467.6  4.71021  0.021230
  4093365    15989.7  4.99697  0.020012
  4524027    17672.0  5.51508  0.018132
  5000000    19531.2  5.47443  0.018267


        N   size[kB]     t[s]  op_per_sec[10^9]
      250        1.0  0.30803  0.324640
      276        1.1  0.30924  0.323372
      305        1.2  0.30897  0.323657
      337        1.3  0.30880  0.323836
      373        1.5  0.31051  0.322052
      412        1.6  0.31082  0.321728
      455        1.8  0.30974  0.322854
      503        2.0  0.31053  0.322026
      556        2.2  0.30988  0.322706
      615        2.4  0.31011  0.322466
      679        2.7  0.30984  0.322748
      751        2.9  0.30988  0.322708
      830        3.2  0.30958  0.323017
      917        3.6  0.31007  0.322509
     1014        4.0  0.30867  0.323976
     1121        4.4  0.31571  0.316751
     1238        4.8  0.30955  0.323048
     1369        5.3  0.30863  0.324008
     1513        5.9  0.31028  0.322293
     1672        6.5  0.31020  0.322373
     1848        7.2  0.30993  0.322650
     2043        8.0  0.31080  0.321747
     2258        8.8  0.30921  0.323402
     2495        9.7  0.30958  0.323013
     2758       10.8  0.31058  0.321976
     3048       11.9  0.30958  0.323015
     3369       13.2  0.30981  0.322774
     3723       14.5  0.30945  0.323158
     4115       16.1  0.31039  0.322176
     4548       17.8  0.30952  0.323076
     5026       19.6  0.31004  0.322538
     5555       21.7  0.31052  0.322039
     6140       24.0  0.31037  0.322195
     6786       26.5  0.30987  0.322716
     7500       29.3  0.31142  0.321112
     8289       32.4  0.31208  0.320427
     9161       35.8  0.31215  0.320363
    10125       39.6  0.31224  0.320268
    11190       43.7  0.31134  0.321195
    12367       48.3  0.31061  0.321947
    13668       53.4  0.31095  0.321593
    15106       59.0  0.31102  0.321521
    16696       65.2  0.31083  0.321716
    18452       72.1  0.31053  0.322027
    20394       79.7  0.31147  0.321057
    22539       88.0  0.31070  0.321851
    24911       97.3  0.31119  0.321343
    27532      107.5  0.31142  0.321112
    30429      118.9  0.31171  0.320812
    33630      131.4  0.31119  0.321346
    37168      145.2  0.31263  0.319865
    41079      160.5  0.31104  0.321499
    45401      177.3  0.31125  0.321280
    50177      196.0  0.31160  0.320923
    55456      216.6  0.31186  0.320653
    61291      239.4  0.31104  0.321501
    67740      264.6  0.31161  0.320916
    74867      292.4  0.31126  0.321273
    82743      323.2  0.31129  0.321243
    91449      357.2  0.31083  0.321716
   101070      394.8  0.31192  0.320592
   111704      436.3  0.31093  0.321611
   123456      482.2  0.31141  0.321124
   136445      533.0  0.31145  0.321079
   150800      589.1  0.31150  0.321025
   166666      651.0  0.31110  0.321439
   184201      719.5  0.31168  0.320843
   203581      795.2  0.31082  0.321732
   225000      878.9  0.31148  0.321051
   248672      971.4  0.31123  0.321304
   274835     1073.6  0.31245  0.320052
   303750     1186.5  0.31171  0.320810
   335708     1311.4  0.31243  0.320072
   371027     1449.3  0.31318  0.319307
   410063     1601.8  0.31283  0.319662
   453206     1770.3  0.31238  0.320128
   500888     1956.6  0.31410  0.318367
   553586     2162.4  0.31376  0.318717
   611829     2390.0  0.31460  0.317863
   676199     2641.4  0.31492  0.317541
   747342     2919.3  0.31510  0.317357
   825970     3226.4  0.31474  0.317727
   912870     3565.9  0.31589  0.316570
  1008913     3941.1  0.31499  0.317466
  1115061     4355.7  0.31554  0.316920
  1232376     4814.0  0.31562  0.316840
  1362035     5320.4  0.31572  0.316734
  1505334     5880.2  0.31586  0.316591
  1663710     6498.9  0.31563  0.316829
  1838749     7182.6  0.31659  0.315866
  2032203     7938.3  0.31576  0.316696
  2246011     8773.5  0.31629  0.316164
  2482314     9696.5  0.31630  0.316151
  2743478    10716.7  0.31583  0.316625
  3032119    11844.2  0.31638  0.316073
  3351127    13090.3  0.31632  0.316131
  3703699    14467.6  0.31639  0.316069
  4093365    15989.7  0.31666  0.315800
  4524027    17672.0  0.31612  0.316333
  5000000    19531.2  0.31608  0.316371


        N   size[kB]     t[s]  op_per_sec[10^9]
      250        1.0  0.30790  0.324785
      276        1.1  0.30879  0.323844
      305        1.2  0.30785  0.324831
      337        1.3  0.30847  0.324176
      373        1.5  0.31033  0.322237
      412        1.6  0.30856  0.324086
      455        1.8  0.30943  0.323172
      503        2.0  0.30996  0.322617
      556        2.2  0.30858  0.324063
      615        2.4  0.30967  0.322927
      679        2.7  0.30914  0.323482
      751        2.9  0.30959  0.323011
      830        3.2  0.30902  0.323602
      917        3.6  0.30841  0.324243
     1014        4.0  0.30906  0.323566
     1121        4.4  0.30852  0.324132
     1238        4.8  0.31034  0.322224
     1369        5.3  0.30834  0.324315
     1513        5.9  0.30525  0.327601
     1672        6.5  0.30605  0.326743
     1848        7.2  0.31037  0.322191
     2043        8.0  0.30940  0.323203
     2258        8.8  0.30952  0.323079
     2495        9.7  0.30947  0.323129
     2758       10.8  0.30944  0.323165
     3048       11.9  0.30869  0.323948
     3369       13.2  0.31045  0.322113
     3723       14.5  0.31063  0.321931
     4115       16.1  0.30984  0.322746
     4548       17.8  0.31303  0.319461
     5026       19.6  0.31380  0.318679
     5555       21.7  0.31456  0.317908
     6140       24.0  0.31426  0.318204
     6786       26.5  0.31577  0.316685
     7500       29.3  0.31516  0.317300
     8289       32.4  0.32856  0.304359
     9161       35.8  0.37518  0.266536
    10125       39.6  0.42292  0.236451
    11190       43.7  0.42811  0.233587
    12367       48.3  0.42857  0.233336
    13668       53.4  0.42813  0.233574
    15106       59.0  0.42810  0.233589
    16696       65.2  0.42750  0.233917
    18452       72.1  0.42746  0.233941
    20394       79.7  0.42842  0.233415
    22539       88.0  0.42868  0.233275
    24911       97.3  0.42795  0.233672
    27532      107.5  0.43362  0.230616
    30429      118.9  0.43204  0.231461
    33630      131.4  0.43370  0.230576
    37168      145.2  0.43104  0.231996
    41079      160.5  0.43329  0.230794
    45401      177.3  0.43337  0.230752
    50177      196.0  0.43906  0.227758
    55456      216.6  0.43693  0.228868
    61291      239.4  0.44371  0.225374
    67740      264.6  0.44942  0.222509
    74867      292.4  0.45718  0.218730
    82743      323.2  0.46102  0.216911
    91449      357.2  0.46798  0.213685
   101070      394.8  0.46973  0.212887
   111704      436.3  0.46992  0.212801
   123456      482.2  0.47152  0.212081
   136445      533.0  0.47147  0.212103
   150800      589.1  0.47293  0.211449
   166666      651.0  0.47248  0.211647
   184201      719.5  0.47305  0.211395
   203581      795.2  0.47332  0.211274
   225000      878.9  0.47371  0.211098
   248672      971.4  0.47277  0.211521
   274835     1073.6  0.47330  0.211280
   303750     1186.5  0.47218  0.211783
   335708     1311.4  0.47330  0.211284
   371027     1449.3  0.47332  0.211273
   410063     1601.8  0.47591  0.210122
   453206     1770.3  0.47418  0.210889
   500888     1956.6  0.47517  0.210451
   553586     2162.4  0.47504  0.210509
   611829     2390.0  0.47505  0.210504
   676199     2641.4  0.47870  0.208899
   747342     2919.3  0.48303  0.207025
   825970     3226.4  0.48388  0.206664
   912870     3565.9  0.50562  0.197779
  1008913     3941.1  0.51619  0.193728
  1115061     4355.7  0.53774  0.185965
  1232376     4814.0  0.53695  0.186239
  1362035     5320.4  0.54559  0.183289
  1505334     5880.2  0.55408  0.180480
  1663710     6498.9  0.55287  0.180875
  1838749     7182.6  0.56666  0.176474
  2032203     7938.3  0.56619  0.176621
  2246011     8773.5  0.56439  0.177181
  2482314     9696.5  0.56712  0.176329
  2743478    10716.7  0.56908  0.175722
  3032119    11844.2  0.56841  0.175929
  3351127    13090.3  0.58777  0.170135
  3703699    14467.6  0.58670  0.170445
  4093365    15989.7  0.59115  0.169161
  4524027    17672.0  0.57778  0.173077
  5000000    19531.2  0.59372  0.168430


